Vernier Format 2
Untitled.cmbl 01/04/2022 09:39:07 .
Latest
Time	Position 1	Velocity 1	Acceleration 1	Position 2	Velocity 2	Acceleration 2
t	x 1	v 1	acc 1	x 2	v 2	acc 2
s	m	m/s	m/s²	m	m/s	m/s²

0.05	0.359464	-0.00400166666667	0.0591675	0.173558	0.000190555555556	0.00508148148148
0.1	0.359121	-0.000714583333333	0.04587625	0.173558	0.000381111111111	0.00690763888889
0.15	0.3592925	0.0018865	0.0220568055556	0.173558	0.0008575	0.0129577777778
0.2	0.359464	0.00200083333333	-0.00781807098765	0.1737295	0.00104805555556	0.0226020061728
0.25	0.3596355	-0.000285833333333	-0.0143922376543	0.173558	0.00219138888889	0.0414458333333
0.3	0.3592925	-0.000571666666667	-0.000254074074075	0.173558	0.00962305555556	-0.0148209876543
0.35	0.359464	0.00104805555556	-0.00529320987654	0.1754445	0.00114333333333	-0.0786570987654
0.4	0.3596355	-0.000952777777777	-0.0124390432099	0.1733865	-0.00304888888889	-0.0579077160494
0.45	0.3592925	-0.001715	0.00391697530864	0.17493	-0.00409694444444	-0.0351469135802
0.5	0.3592925	0.000190555555555	0.00910432098765	0.173215	-0.00762222222222	0.00989830246914
0.55	0.359464	-9.52777777778E-005	0.00333472222222	0.1737295	-0.00314416666667	0.0442512345679
0.6	0.3592925	-0.000381111111111	0.00910432098765	0.172872	0.000381111111111	0.023925308642
0.65	0.3592925	0.00114333333333	0.00783395061728	0.1740725	9.52777777777E-005	0.019849537037
0.7	0.359464	0.00161972222222	-0.0115921296296	0.1733865	-0.00800333333333	0.261696296296
0.75	0.3596355	-0.000762222222222	-0.0238723765432	0.1720145	0.0109569444444	0.89137654321
0.8	0.3592925	-0.001715	-0.0479035493827	0.173901	0.0612636111111	1.8952337963
0.85	0.3592925	0.000190555555555	-0.255873765432	0.1747585	0.187506666667	2.91602932099
0.9	0.359464	-0.0104805555556	-0.861681635802	0.185906	0.419222222222	2.54439305556
0.95	0.3592925	-0.0573572222222	-1.96229876543	0.2220925	0.540891944444	0.362267283951
1	0.3592925	-0.210278055556	-2.88882222222	0.2526195	0.429416944444	-1.39089675926
1.05	0.3407705	-0.40817	-2.61066404321	0.264453	0.305936944444	-1.38004567901
1.1	0.313159	-0.510593611111	-1.51375216049	0.2780015	0.266301388889	-0.701509104938
1.15	0.286405	-0.542035277778	-0.608242746914	0.290178	0.25725	-0.273288425926
1.2	0.258622	-0.552801666667	0.0438277777778	0.303898	0.254105833333	-0.158266975309
1.25	0.231525	-0.549752777778	0.923929783951	0.3160745	0.242291388889	-0.11920308642
1.3	0.2021985	-0.500494166667	2.39613024691	0.3277365	0.238194444444	-0.0336648148148
1.35	0.172529	-0.290120833333	3.36928688272	0.33957	0.240004722222	0.0168853395062
1.4	0.1730435	-0.0740308333333	2.64448765432	0.3514035	0.246674166667	-0.0600779320988
1.45	0.173215	-0.00200083333333	1.32261435185	0.364952	0.239528333333	-0.227819753086
1.5	0.1737295	0.0304888888889	0.408529938272	0.376271	0.216471111111	-0.252433179012
1.55	0.1775025	0.0242958333333	-0.120579320988	0.3860465	0.203608611111	-0.0799274691358
1.6	0.1775025	-0.00371583333333	-0.13677654321	0.3956505	0.209134722222	0.084850154321
1.65	0.1754445	-0.00238194444444	0.106128858025	0.4066265	0.221520833333	0.0792922839506
1.7	0.1761305	0.0179122222222	0.170070833333	0.41846	0.222854722222	-0.0366819444444
1.75	0.1778455	0.0296313888889	-0.036999537037	0.4296075	0.211897777778	-0.0554728395062
1.8	0.180761	0.0108616666667	-0.209611111111	0.43904	0.210849722222	0.0422927469136
1.85	0.17836	-0.00142916666667	-0.194366666667	0.4501875	0.219043611111	0.0994064814815
1.9	0.180418	-0.00971833333333	-0.125025617284	0.4611635	0.224760277778	0.0858558641975
1.95	0.1775025	-0.0172452777778	0.0115921296296	0.4728255	0.227618611111	0.0638361111111
2	0.177674	-0.00609777777778	0.0947484567901	0.483973	0.229428888889	0.0675413580247
2.05	0.177331	-0.00219138888889	0.0716700617284	0.495635	0.233525833333	0.0810919753086
2.1	0.1775025	0.00142916666667	0.0302242283951	0.5071255	0.240290555556	0.0423986111111
2.15	0.177674	0.000190555555556	-0.00476388888889	0.519988	0.240862222222	-0.0561609567901
2.2	0.1775025	-0.000762222222222	-0.00614012345679	0.53165	0.23324	-0.151174074074
2.25	0.1775025	-0.000285833333333	-0.0097924382716	0.5431405	0.226475277778	-0.300125
2.3	0.1775025	-0.000666944444444	-0.030700617284	0.554288	0.212945833333	-0.638255246914
2.35	0.1775025	-0.00266777777778	-0.0562138888889	0.565607	0.172929166667	-1.1192492284
2.4	0.1775025	-0.00847972222222	-0.0372641975309	0.574182	0.0865122222222	-1.2904316358
2.45	0.1764735	-0.0104805555556	0.0495444444444	0.573496	0.0141011111111	-0.889418055556
2.5	0.1757875	-0.00104805555556	0.0906197530864	0.57281	-0.00638361111111	-0.368142746914
2.55	0.176645	0.00409694444444	0.0326591049383	0.5722955	-0.00886083333333	-0.0797686728395
2.6	0.176645	0.00133388888889	-0.0176793209877	0.5719525	-0.00657416666667	0.0258837962963
2.65	0.176645	-0.000190555555555	-0.0235018518518	0.5716095	-0.00381111111111	0.0473212962963
2.7	0.176645	-0.00200083333333	-0.00481682098765	0.5716095	-0.00161972222222	0.0518205246914
2.75	0.176302	-0.0008575	0.0179439814815	0.571438	0.000952777777778	0.0574842592593
2.8	0.1764735	0.00152444444444	0.00989830246913	0.5716095	0.00476388888889	0.0486975308642
2.85	0.176645	0.0008575	-0.0107981481481	0.5719525	0.00752694444444	0.0109040123457
2.9	0.176645	-0.00123861111111	-0.00561080246913	0.5726385	0.00543083333333	-0.0193202160494
2.95	0.176302	-9.52777777778E-005	0.00741049382716	0.572467	0.00352527777778	-0.0145033950617
3	0.176645	0.00114333333333	-0.00449922839506	0.57281	0.0042875	-0.0123861111111
3.05	0.176645	-0.00123861111111	-0.00682824074074	0.5729815	0.00362055555556	-0.0289538580247
3.1	0.176302	-0.000285833333333	0.00269953703704	0.5733245	0.000666944444444	-0.0327649691358
3.15	0.176645	0.000190555555556	-0.00439336419753	0.5729815	-0.00133388888889	-0.00751635802469
3.2	0.1764735	-0.00152444444444	0.00179969135802	0.5729815	0.000476388888889	0.0103217592593
3.25	0.176302	-9.52777777777E-005	0.0132859567901	0.573153	0.000571666666667	0.0115921296296
3.3	0.1764735	0.000952777777778	0.00571666666667	0.5729815	0.00161972222222	0.00926311728395
3.35	0.1764735	0.0008575	-0.00763280864197	0.5733245	0.00219138888889	-0.0056637345679
3.4	0.176645	-0.000666944444444	-0.0080774382716	0.5733245	0.000666944444445	-0.0130212962963
3.45	0.176302	-0.000666944444444	0.0023925308642	0.5733245	0.000190555555556	-0.00788688271605
3.5	0.1764735	0.001029	-0.0111792592593	0.5733245	0	-0.00352527777778
3.55	0.176645	-0.00114333333333	-0.0353427623457	0.5733245	0	-0.000979243827161
3.6	0.176302	-0.00400166666667	-0.0490574691358	0.5733245	0	-0.000211728395062
